Time(s),Force(N)
0.0,9.433059692
0.04,9.0988662716
0.08,8.7646728512
0.12,8.4304794308
0.16,8.0962860104
0.2,7.76209259
0.24,7.6731781004
0.28,7.5842636108
0.32,7.4953491212
0.36,7.4064346316
0.4,7.317520142
0.44,7.4396499636
0.48,7.5617797852
0.52,7.6839096068
0.56,7.8060394284
0.6,7.92816925
0.64,8.2470321652
0.68,8.5658950804
0.72,8.8847579956
0.76,9.2036209108
0.8,9.522483826
0.84,9.661476134800001
0.88,9.8004684436
0.92,9.9394607524
0.96,10.0784530612
1.0,10.21744537
1.04,10.26394653
1.08,10.31044769
1.12,10.35694885
1.16,10.40345001
1.2,10.44995117
1.24,10.436920927000001
1.28,10.423890684
1.32,10.410860441
1.36,10.397830198
1.4000000000000001,10.384799955
1.44,10.371769712
1.48,10.358739469
1.52,10.345709226
1.56,10.332678983
1.6,10.31964874
1.6400000000000001,10.22766876
1.68,10.13568878
1.72,10.0437088
1.76,9.95172882
1.8,9.85974884
1.84,9.954283142
1.8800000000000001,10.048817443999999
1.92,10.143351746
1.96,10.237886048
2.0,10.33242035
2.04,10.431044007999999
2.08,10.529667666
2.12,10.628291324
2.16,10.726914982
2.2,10.82553864
2.24,10.74377747
2.2800000000000002,10.6620163
2.32,10.58025513
2.36,10.49849396
2.4,10.41673279
2.44,10.36716614
2.48,10.31759949
2.52,10.26803284
2.56,10.21846619
2.6,10.16889954
2.64,10.0454933201
2.68,9.9220871002
2.72,9.7986808803
2.7600000000000002,9.6752746604
2.8000000000000003,9.5518684405
2.84,9.4284622206
2.88,9.3050560007
2.92,9.181649780799999
2.96,9.0582435609
3.0,8.934837341
3.04,8.8796493528
3.08,8.8244613646
3.12,8.769273376400001
3.16,8.714085388200001
3.2,8.6588974
3.24,8.6466323854
3.2800000000000002,8.6343673708
3.3200000000000003,8.622102356200001
3.36,8.6098373416
3.4,8.597572327
3.44,8.7498504642
3.48,8.9021286014
3.52,9.054406738600001
3.56,9.2066848758
3.6,9.358963013
3.64,9.4816032417
3.68,9.6042434704
3.72,9.7268836991
3.7600000000000002,9.8495239278
3.8000000000000003,9.9721641565
3.84,10.0948043852
3.88,10.2174446139
3.92,10.3400848426
3.96,10.4627250713
4.0,10.5853653
4.04,10.638508609999999
4.08,10.69165192
4.12,10.74479523
4.16,10.79793854
4.2,10.85108185
4.24,10.887364198
4.28,10.923646546
4.32,10.959928893999999
4.36,10.996211242
4.4,11.03249359
4.44,11.139036559
4.48,11.245579528
4.5200000000000005,11.352122497
4.5600000000000005,11.458665466
4.6000000000000005,11.565208434999999
4.64,11.671751404
4.68,11.778294373
4.72,11.884837341999999
4.76,11.991380311
4.8,12.09792328
4.84,12.065219118
4.88,12.032514956
4.92,11.999810794
4.96,11.967106632
5.0,11.93440247
5.04,11.774459842
5.08,11.614517214000001
5.12,11.454574586
5.16,11.294631958
5.2,11.13468933
5.24,11.078479004
5.28,11.022268678
5.32,10.966058352000001
5.36,10.909848026
5.4,10.8536377
5.44,10.752459721000001
5.48,10.651281742
5.5200000000000005,10.550103763
5.5600000000000005,10.448925784
5.6000000000000005,10.347747805000001
5.64,10.246569826
5.68,10.145391846999999
5.72,10.044213868
5.76,9.943035889
5.8,9.84185791
5.84,9.720751953
5.88,9.599645996
5.92,9.478540039
5.96,9.357434082
6.0,9.236328125
6.04,9.1796066284
6.08,9.1228851318
6.12,9.066163635199999
6.16,9.009442138599999
6.2,8.952720642
6.24,8.910307311999999
6.28,8.867893982
6.32,8.825480652
6.36,8.783067322
6.4,8.740653992
6.44,8.7023292544
6.48,8.6640045168
6.5200000000000005,8.6256797792
6.5600000000000005,8.5873550416
6.6000000000000005,8.549030304
6.640000000000001,8.5107055664
6.68,8.4723808288
6.72,8.4340560912
6.76,8.3957313536
6.8,8.357406616
6.84,8.345652770800001
6.88,8.3338989256
6.92,8.3221450804
6.96,8.3103912352
7.0,8.29863739
7.04,8.2868850706
7.08,8.2751327512
7.12,8.2633804318
7.16,8.251628112399999
7.2,8.239875793
7.24,8.2296554562
7.28,8.2194351194
7.32,8.2092147826
7.36,8.1989944458
7.4,8.188774109
7.44,8.1788101197
7.48,8.1688461304
7.5200000000000005,8.158882141100001
7.5600000000000005,8.1489181518
7.6000000000000005,8.1389541625
7.640000000000001,8.1289901732
7.68,8.1190261839
7.72,8.1090621946
7.76,8.099098205299999
7.8,8.089134216
7.84,8.1514755246
7.88,8.2138168332
7.92,8.2761581418
7.96,8.338499450399999
8.0,8.400840759
8.040000000000001,8.5239913938
8.08,8.6471420286
8.120000000000001,8.7702926634
8.16,8.8934432982
8.2,9.016593933
8.24,9.1244155882
8.28,9.2322372434
8.32,9.340058898599999
8.36,9.4478805538
8.4,9.555702209
8.44,9.6430831906
8.48,9.7304641722
8.52,9.8178451538
8.56,9.9052261354
8.6,9.992607117
8.64,10.1852539056
8.68,10.3779006942
8.72,10.5705474828
8.76,10.7631942714
8.8,10.95584106
8.84,10.865904232
8.88,10.775967404
8.92,10.686030576
8.96,10.596093748
9.0,10.50615692
9.040000000000001,10.561344908
9.08,10.616532896
9.120000000000001,10.671720884
9.16,10.726908872000001
9.200000000000001,10.78209686
9.24,10.837284848
9.28,10.892472836
9.32,10.947660824
9.36,11.002848812
9.4,11.0580368
9.44,11.123956296
9.48,11.189875792
9.52,11.255795288
9.56,11.321714784000001
9.6,11.38763428
9.64,11.328358462
9.68,11.269082644000001
9.72,11.209806826
9.76,11.150531008
9.8,11.09125519
9.84,10.7335556046
9.88,10.3758560192
9.92,10.0181564338
9.96,9.6604568484
10.0,9.302757263
10.040000000000001,9.3326507567
10.08,9.362544250400001
10.120000000000001,9.3924377441
10.16,9.4223312378
10.200000000000001,9.4522247315
10.24,9.4821182252
10.28,9.5120117189
10.32,9.5419052126
10.36,9.571798706300001
10.4,9.6016922
10.44,9.545993042200001
10.48,9.4902938844
10.52,9.4345947266
10.56,9.378895568799999
10.6,9.323196411
10.64,9.2562545776
10.68,9.1893127442
10.72,9.122370910799999
10.76,9.0554290774
10.8,8.988487244
10.84,8.9455642702
10.88,8.9026412964
10.92,8.8597183226
10.96,8.8167953488
11.0,8.773872375
11.040000000000001,8.880670928499999
11.08,8.987469482
11.120000000000001,9.0942680355
11.16,9.201066589
11.200000000000001,9.307865142499999
11.24,9.414663696
11.28,9.5214622495
11.32,9.628260803
11.36,9.735059356499999
11.4,9.84185791
11.44,9.935882568
11.48,10.029907226
11.52,10.123931884
11.56,10.217956542
11.6,10.3119812
11.64,10.370745848
11.68,10.429510496
11.72,10.488275144
11.76,10.547039792
11.8,10.60580444
11.84,10.64515228
11.88,10.68450012
11.92,10.72384796
11.96,10.7631958
12.0,10.80254364
12.040000000000001,10.765751648
12.08,10.728959655999999
12.120000000000001,10.692167664
12.16,10.655375672
12.200000000000001,10.61858368
12.24,10.581791688
12.280000000000001,10.544999696
12.32,10.508207704
12.36,10.471415711999999
12.4,10.43462372
12.44,10.361039736
12.48,10.287455752
12.52,10.213871768
12.56,10.140287784
12.6,10.0667038
12.64,10.0145813018
12.68,9.9624588036
12.72,9.9103363054
12.76,9.8582138072
12.8,9.806091309
12.84,9.744770813399999
12.88,9.6834503178
12.92,9.6221298222
12.96,9.560809326600001
13.0,9.499488831
13.040000000000001,9.448644257000002
13.08,9.397799683
13.120000000000001,9.346955109
13.16,9.296110535
13.200000000000001,9.245265961000001
13.24,9.194421387
13.280000000000001,9.143576813
13.32,9.092732239
13.36,9.041887665
13.4,8.991043091
13.44,8.9435211184
13.48,8.8959991458
13.52,8.848477173200001
13.56,8.8009552006
13.6,8.753433228
13.64,8.7309494022
13.68,8.7084655764
13.72,8.6859817506
13.76,8.6634979248
13.8,8.641014099
13.84,8.6839370726
13.88,8.726860046199999
13.92,8.7697830198
13.96,8.8127059934
14.0,8.855628967
14.040000000000001,8.957829284399999
14.08,9.0600296018
14.120000000000001,9.1622299192
14.16,9.264430236599999
14.200000000000001,9.366630554
14.24,9.4688308714
14.280000000000001,9.5710311888
14.32,9.673231506199999
14.36,9.7754318236
14.4,9.877632141
14.44,10.0043594368
14.48,10.1310867326
14.52,10.257814028399999
14.56,10.384541324199999
14.6,10.51126862
14.64,10.597627262
14.68,10.683985904
14.72,10.770344545999999
14.76,10.856703188
14.8,10.94306183
14.84,11.001828004
14.88,11.060594178
14.92,11.119360352
14.96,11.178126526
15.0,11.2368927
15.040000000000001,11.240724945
15.08,11.24455719
15.120000000000001,11.248389435
15.16,11.25222168
15.200000000000001,11.256053925
15.24,11.25988617
15.280000000000001,11.263718415
15.32,11.26755066
15.36,11.271382905
15.4,11.27521515
15.44,11.347776796
15.48,11.420338442
15.52,11.492900087999999
15.56,11.565461734
15.6,11.63802338
15.64,11.571594242
15.68,11.505165104
15.72,11.438735966000001
15.76,11.372306828000001
15.8,11.30587769
15.84,11.324784854
15.88,11.343692018
15.92,11.362599182
15.96,11.381506346
16.0,11.40041351
16.04,11.142358396
16.080000000000002,10.884303282
16.12,10.626248168
16.16,10.368193053999999
16.2,10.11013794
16.240000000000002,9.9818771366
16.28,9.8536163332
16.32,9.7253555298
16.36,9.5970947264
16.4,9.468833923
16.44,9.3916717526
16.48,9.3145095822
16.52,9.2373474118
16.56,9.160185241399999
16.6,9.083023071
16.64,9.03039093
16.68,8.977758789
16.72,8.925126648
16.76,8.872494507
16.8,8.819862366
16.84,8.7636520388
16.88,8.7074417116
16.92,8.6512313844
16.96,8.5950210572
17.0,8.53881073
17.04,8.5275680542
17.080000000000002,8.5163253784
17.12,8.505082702600001
17.16,8.493840026800001
17.2,8.482597351
17.240000000000002,8.490007019
17.28,8.497416687000001
17.32,8.504826355
17.36,8.512236023
17.400000000000002,8.519645691000001
17.44,8.527055359
17.48,8.534465027
17.52,8.541874694999999
17.56,8.549284363
17.6,8.556694031
17.64,8.634365845
17.68,8.712037659
17.72,8.789709472999998
17.76,8.867381286999999
17.8,8.945053101
17.84,8.93841095
17.88,8.931768799
17.92,8.925126647999999
17.96,8.918484497
18.0,8.911842346
18.04,8.8193511962
18.080000000000002,8.7268600464
18.12,8.6343688966
18.16,8.541877746800001
18.2,8.449386597
18.240000000000002,8.514794159200001
18.28,8.5802017214
18.32,8.6456092836
18.36,8.7110168458
18.400000000000002,8.776424408
18.44,8.841831970200001
18.48,8.9072395324
18.52,8.972647094600001
18.56,9.0380546568
18.6,9.103462219
18.64,9.1310562132
18.68,9.158650207400001
18.72,9.1862442016
18.76,9.2138381958
18.8,9.24143219
18.84,9.3012191772
18.88,9.361006164399999
18.92,9.4207931516
18.96,9.480580138799999
19.0,9.540367126
19.04,9.622639464999999
19.080000000000002,9.704911804
19.12,9.787184143
19.16,9.869456482
19.2,9.951728821
19.240000000000002,10.0342552189
19.28,10.116781616799999
19.32,10.1993080147
19.36,10.2818344126
19.400000000000002,10.3643608105
19.44,10.4468872084
19.48,10.5294136063
19.52,10.611940004200001
19.56,10.6944664021
19.6,10.7769928
19.64,10.822982790000001
19.68,10.86897278
19.72,10.91496277
19.76,10.96095276
19.8,11.00694275
19.84,10.989567566
19.88,10.972192382
19.92,10.954817198
19.96,10.937442014
20.0,10.92006683
20.04,10.85925903
20.080000000000002,10.79845123
20.12,10.73764343
20.16,10.67683563
20.2,10.61602783
20.240000000000002,10.575147245
20.28,10.53426666
20.32,10.493386075
20.36,10.45250549
20.400000000000002,10.411624905
20.44,10.37074432
20.48,10.329863735
20.52,10.28898315
20.56,10.248102565
20.6,10.20722198
20.64,10.1326171836
20.68,10.0580123872
20.72,9.9834075908
20.76,9.9088027944
20.8,9.834197998
20.84,9.763168335
20.88,9.692138672
20.92,9.621109009
20.96,9.550079346
21.0,9.479049683
21.04,9.4126205448
21.080000000000002,9.3461914066
21.12,9.2797622684
21.16,9.2133331302
21.2,9.146903992
21.240000000000002,9.0779190066
21.28,9.0089340212
21.32,8.9399490358
21.36,8.8709640504
21.400000000000002,8.801979065000001
21.44,8.732994079600001
21.48,8.6640090942
21.52,8.5950241088
21.56,8.5260391234
21.6,8.457054138
21.64,8.4304809568
21.68,8.4039077756
21.72,8.377334594399999
21.76,8.350761413199999
21.8,8.324188232
21.84,8.3201004024
21.88,8.3160125728
21.92,8.311924743199999
21.96,8.3078369136
22.0,8.303749084
22.04,8.290463256399999
22.080000000000002,8.2771774288
22.12,8.2638916012
22.16,8.2506057736
22.2,8.237319946
22.240000000000002,8.2311882016
22.28,8.2250564572
22.32,8.2189247128
22.36,8.212792968399999
22.400000000000002,8.206661224
22.44,8.2005294796
22.48,8.194397735199999
22.52,8.1882659908
22.56,8.182134246399999
22.6,8.176002502
22.64,8.1943984982
22.68,8.2127944944
22.72,8.2311904906
22.76,8.2495864868
22.8,8.267982483
22.84,8.3144836426
22.88,8.3609848022
22.92,8.4074859618
22.96,8.4539871214
23.0,8.500488281
23.04,8.5740722654
23.080000000000002,8.6476562498
23.12,8.7212402342
23.16,8.7948242186
23.2,8.868408203
23.240000000000002,8.9708633422
23.28,9.0733184814
23.32,9.1757736206
23.36,9.2782287598
23.400000000000002,9.380683899000001
23.44,9.483139038200001
23.48,9.5855941774
23.52,9.6880493166
23.56,9.7905044558
23.6,9.892959595
23.64,10.030418396
23.68,10.167877197000001
23.72,10.305335998
23.76,10.442794799000001
23.8,10.5802536
23.84,10.603759764000001
23.88,10.627265928
23.92,10.650772092
23.96,10.674278256
24.0,10.69778442
24.04,10.709027096
24.080000000000002,10.720269772
24.12,10.731512448
24.16,10.742755124
24.2,10.7539978
24.240000000000002,10.741989133
24.28,10.729980466
24.32,10.717971799
24.36,10.705963132
24.400000000000002,10.693954465000001
24.44,10.681945798
24.48,10.669937131
24.52,10.657928464
24.560000000000002,10.645919797
24.6,10.63391113
24.64,10.579234311999999
24.68,10.524557494
24.72,10.469880675999999
24.76,10.415203858
24.8,10.36052704
24.84,10.31760254
24.88,10.27467804
24.92,10.23175354
24.96,10.18882904
25.0,10.14590454
25.04,10.0891830436
25.080000000000002,10.0324615472
25.12,9.975740050799999
25.16,9.9190185544
25.2,9.862297058
25.240000000000002,9.751410674999999
25.28,9.640524292
25.32,9.529637909
25.36,9.418751526
25.400000000000002,9.307865143
25.44,9.19697876
25.48,9.086092377
25.52,8.975205994
25.560000000000002,8.864319611
25.6,8.753433228
25.64,8.7079544072
25.68,8.662475586400001
25.72,8.6169967656
25.76,8.5715179448
25.8,8.526039124
25.84,8.4958892826
25.88,8.4657394412
25.92,8.4355895998
25.96,8.4054397584
26.0,8.375289917
26.04,8.3476959228
26.080000000000002,8.3201019286
26.12,8.2925079344
26.16,8.2649139402
26.2,8.237319946
26.240000000000002,8.215857696299999
26.28,8.1943954466
26.32,8.1729331969
26.36,8.1514709472
26.400000000000002,8.1300086975
26.44,8.1085464478
26.48,8.087084198100001
26.52,8.0656219484
26.560000000000002,8.0441596987
26.6,8.022697449
26.64,8.024742126600001
26.68,8.0267868042
26.72,8.028831481800001
26.76,8.0308761594
26.8,8.032920837
26.84,8.0267883298
26.88,8.0206558226
26.92,8.0145233154
26.96,8.0083908082
27.0,8.002258301
27.04,7.986418152
27.080000000000002,7.970578003
27.12,7.954737853999999
27.16,7.938897705
27.2,7.923057556
27.240000000000002,7.9205024718
27.28,7.9179473876
27.32,7.9153923034
27.36,7.9128372192
27.400000000000002,7.910282135
27.44,7.9077270508
27.48,7.9051719666
27.52,7.9026168824
27.560000000000002,7.9000617982
27.6,7.897506714
27.64,8.0916870118
27.68,8.2858673096
27.72,8.4800476074
27.76,8.6742279052
27.8,8.868408203
27.84,8.9450576782
27.88,9.0217071534
27.92,9.0983566286
27.96,9.1750061038
28.0,9.251655579
28.04,9.167851257599999
28.080000000000002,9.0840469362
28.12,9.0002426148
28.16,8.9164382934
28.2,8.832633972
28.240000000000002,8.843365478399999
28.28,8.8540969848
28.32,8.8648284912
28.36,8.8755599976
28.400000000000002,8.886291503999999
28.44,8.8970230104
28.48,8.9077545168
28.52,8.9184860232
28.560000000000002,8.929217529599999
28.6,8.939949036
28.64,9.054412842
28.68,9.168876648
28.72,9.283340454000001
28.76,9.397804260000001
28.8,9.512268066
28.84,9.6308197028
28.88,9.7493713396
28.92,9.867922976400001
28.96,9.9864746132
29.0,10.10502625
29.04,10.09582825
29.080000000000002,10.08663025
29.12,10.07743225
29.16,10.06823425
29.2,10.05903625
29.240000000000002,9.9353744463
29.28,9.8117126426
29.32,9.6880508389
29.36,9.5643890352
29.400000000000002,9.4407272315
29.44,9.317065427800001
29.48,9.1934036241
29.52,9.0697418204
29.560000000000002,8.9460800167
29.6,8.822418213
29.64,8.7048873902
29.68,8.5873565674
29.72,8.4698257446
29.76,8.3522949218
29.8,8.234764099
29.84,8.1872421264
29.88,8.139720153799999
29.92,8.0921981812
29.96,8.0446762086
30.0,7.997154236
30.04,7.9828460694
30.080000000000002,7.9685379028
30.12,7.9542297362
30.16,7.9399215696
30.2,7.925613403
30.240000000000002,7.9084945676
30.28,7.8913757322
30.32,7.8742568967999995
30.36,7.8571380614
30.400000000000002,7.840019226
30.44,7.8229003906
30.48,7.8057815552
30.52,7.7886627198
30.560000000000002,7.7715438844
30.6,7.754425049
30.64,7.759024048
30.68,7.763623047
30.72,7.768222046
30.76,7.772821045000001
30.8,7.777420044
30.84,7.778442382800001
30.88,7.7794647216
30.92,7.7804870604000005
30.96,7.7815093992
31.0,7.782531738
31.04,7.780998229800001
31.080000000000002,7.7794647216
31.12,7.7779312134000005
31.16,7.7763977052
31.2,7.774864197
31.240000000000002,7.778441620100001
31.28,7.7820190432
31.32,7.7855964663
31.36,7.7891738894
31.400000000000002,7.7927513125
31.44,7.7963287356
31.48,7.7999061587
31.52,7.8034835818
31.560000000000002,7.8070610048999995
31.6,7.810638428
31.64,7.8177917481999994
31.68,7.8249450684
31.720000000000002,7.8320983885999995
31.76,7.8392517088
31.8,7.846405029
31.84,7.8448715208
31.88,7.843338012599999
31.92,7.8418045044
31.96,7.840270996199999
32.0,7.838737488
32.04,7.8602005005999995
32.08,7.8816635131999995
32.12,7.9031265258
32.160000000000004,7.9245895384
32.2,7.946052551
32.24,8.061538696
32.28,8.177024841
32.32,8.292510986
32.36,8.407997131
32.4,8.523483276
32.44,8.6481674192
32.480000000000004,8.7728515624
32.52,8.897535705600001
32.56,9.0222198488
32.6,9.146903992
32.64,9.2537017824
32.68,9.3604995728
32.72,9.4672973632
32.76,9.5740951536
32.8,9.680892944
32.84,9.7330154416
32.88,9.7851379392
32.92,9.8372604368
32.96,9.8893829344
33.0,9.941505432
33.04,10.023776245599999
33.08,10.1060470592
33.12,10.188317872799999
33.160000000000004,10.2705886864
33.2,10.3528595
33.24,10.39527283
33.28,10.43768616
33.32,10.480099489999999
33.36,10.52251282
33.4,10.56492615
33.44,10.549084474
33.480000000000004,10.533242798
33.52,10.517401122
33.56,10.501559446
33.6,10.48571777
33.64,10.43563995
33.68,10.38556213
33.72,10.33548431
33.76,10.28540649
33.8,10.23532867
33.84,10.206712337999999
33.88,10.178096005999999
33.92,10.149479674
33.96,10.120863342
34.0,10.09224701
34.04,10.048812866799999
34.08,10.0053787236
34.12,9.961944580399999
34.160000000000004,9.9185104372
34.2,9.875076294
34.24,9.806602478
34.28,9.738128662
34.32,9.669654846
34.36,9.60118103
34.4,9.532707214
34.44,9.4933593748
34.480000000000004,9.454011535600001
34.52,9.4146636964
34.56,9.3753158572
34.6,9.335968018
34.64,9.267494202000002
34.68,9.199020386
34.72,9.13054657
34.76,9.062072754
34.800000000000004,8.993598938000002
34.84,8.925125122
34.88,8.856651306
34.92,8.78817749
34.96,8.719703674000002
35.0,8.651229858
35.04,8.5674255368
35.08,8.4836212156
35.12,8.3998168944
35.160000000000004,8.3160125732
35.2,8.232208252
35.24,8.1724212646
35.28,8.1126342772
35.32,8.052847289799999
35.36,7.9930603024
35.4,7.933273315
35.44,7.9133453366
35.480000000000004,7.8934173582
35.52,7.8734893798000005
35.56,7.8535614014
35.6,7.833633423
35.64,7.822646331900001
35.68,7.8116592408
35.72,7.8006721497000004
35.76,7.7896850586
35.800000000000004,7.7786979675
35.84,7.767710876400001
35.88,7.7567237853
35.92,7.7457366942000005
35.96,7.7347496031
36.0,7.723762512
36.04,7.713032531600001
36.08,7.702302551200001
36.12,7.6915725708
36.160000000000004,7.6808425904
36.2,7.67011261
36.24,7.6742004396
36.28,7.6782882692
36.32,7.6823760988
36.36,7.6864639284
36.4,7.690551758
36.44,7.6925949097999995
36.480000000000004,7.6946380616
36.52,7.6966812134
36.56,7.6987243652
36.6,7.700767517
36.64,7.6997459411
36.68,7.6987243652
36.72,7.6977027893
36.76,7.6966812134
36.800000000000004,7.6956596375
36.84,7.6946380616
36.88,7.6936164857
36.92,7.6925949097999995
36.96,7.6915733339
37.0,7.690551758
37.04,7.7513610842
37.08,7.8121704104
37.12,7.8729797366
37.160000000000004,7.9337890628
37.2,7.994598389
37.24,8.1151931766
37.28,8.2357879642
37.32,8.3563827518
37.36,8.4769775394
37.4,8.597572327
37.44,8.715103149599999
37.480000000000004,8.8326339722
37.52,8.9501647948
37.56,9.0676956174
37.6,9.18522644
37.64,9.274651336
37.68,9.364076231999999
37.72,9.453501128
37.76,9.542926024
37.800000000000004,9.63235092
37.84,9.721775816
37.88,9.811200712
37.92,9.900625608
37.96,9.990050504
38.0,10.0794754
38.04,10.13006439
38.08,10.180653379999999
38.12,10.23124237
38.160000000000004,10.28183136
38.2,10.33242035
38.24,10.32424469
38.28,10.31606903
38.32,10.30789337
38.36,10.29971771
38.4,10.29154205
